Time (s)	Displacement magnitude (m)	von Mises stress (N/m^2)
0.0000	4.0760E-16	3.2869E-11
0.025000	2.2317E-5	0.86901
0.050000	1.4708E-4	6.1307
0.075000	4.0437E-4	18.129
0.10000	7.5315E-4	35.061
0.12500	0.0011154	52.536
0.15000	0.0013999	65.967
0.17500	0.0015577	73.153
0.20000	0.0016070	74.962
0.22500	0.0016231	75.121
0.25000	0.0017059	78.814
0.27500	0.0019209	88.935
0.30000	0.0022560	104.71
0.32500	0.0026268	122.48
0.35000	0.0029382	137.68
0.37500	0.0031317	146.74
0.40000	0.0032088	149.59
0.42500	0.0032269	149.90
0.45000	0.0032808	152.28
0.47500	0.0034545	160.22
0.50000	0.0037587	174.54
0.52500	0.0041283	192.46
0.55000	0.0044694	208.79
0.57500	0.0047032	219.69
0.60000	0.0048043	224.28
0.62500	0.0048281	224.88
0.65000	0.0048679	226.02
0.67500	0.0050030	232.15
0.70000	0.0052672	244.93
0.72500	0.0056267	262.08
0.75000	0.0059893	279.32
0.77500	0.0062584	292.22
0.80000	0.0063966	298.55
0.82500	0.0064342	299.69
0.85000	0.0064568	300.23
0.87500	0.0065577	304.76
0.90000	0.0067883	315.48
0.92500	0.0071288	331.68
0.95000	0.0074962	349.58
0.97500	0.0077991	364.09
1.0000	0.0079796	372.15
1.0250	0.0080187	373.78
1.0500	0.0079082	368.92
1.0750	0.0077212	359.78
1.1000	0.0075664	351.63
1.1250	0.0075199	349.31
1.1500	0.0076034	353.59
1.1750	0.0077729	362.01
1.2000	0.0079395	370.45
1.2000	0.0079395	370.45
1.2050	0.0079636	371.68
1.2100	0.0079843	372.73
1.2150	0.0080005	373.54
1.2200	0.0080104	374.01
1.2250	0.0080175	374.32
1.2300	0.0080152	374.14
1.2350	0.0080106	373.83
1.2400	0.0079973	373.07
1.2450	0.0079802	372.12
1.2500	0.0079573	370.90
1.2550	0.0079361	369.70
1.2600	0.0079230	368.75
1.2650	0.0079306	368.55
1.2700	0.0079785	369.88
1.2750	0.0080768	373.24
1.2800	0.0082289	378.89
1.2850	0.0084405	387.16
1.2900	0.0087157	398.35
1.2950	0.0090587	412.75
1.3000	0.0094880	431.47
1.3050	0.0099849	453.73
1.3100	0.010547	479.50
1.3150	0.011169	508.62
1.3200	0.011853	541.20
1.3250	0.012589	576.75
1.3300	0.013368	614.83
1.3350	0.014183	654.91
1.3400	0.015021	696.27
1.3450	0.015869	738.13
1.3500	0.016716	779.87
1.3550	0.017547	820.85
1.3600	0.018352	860.46
1.3650	0.019116	898.09
1.3700	0.019828	933.12
1.3750	0.020477	964.97
1.3800	0.021049	993.05
1.3850	0.021536	1016.9
1.3900	0.021928	1035.9
1.3950	0.022207	1049.5
1.4000	0.022381	1057.9
1.4050	0.022442	1060.8
1.4100	0.022388	1058.0
1.4150	0.022219	1049.7
1.4200	0.021939	1036.0
1.4250	0.021549	1016.8
1.4300	0.021056	992.60
1.4350	0.020467	963.64
1.4400	0.019791	930.40
1.4450	0.019039	893.40
1.4500	0.018223	853.26
1.4550	0.017355	810.68
1.4600	0.016449	766.43
1.4650	0.015521	721.28
1.4700	0.014585	676.02
1.4750	0.013657	631.39
1.4800	0.012751	588.07
1.4850	0.011880	546.68
1.4900	0.011056	507.73
1.4950	0.010290	471.67
1.5000	0.0095903	438.83
1.5050	0.0089628	409.48
1.5100	0.0084116	383.76
1.5150	0.0079386	361.74
1.5200	0.0075436	343.38
1.5250	0.0072241	328.59
1.5300	0.0069756	317.18
1.5350	0.0067918	308.89
1.5400	0.0066638	303.35
1.5450	0.0065841	300.23
1.5500	0.0065408	298.98
1.5550	0.0065232	299.14
1.5600	0.0065203	300.24
1.5650	0.0065211	301.79
1.5700	0.0065128	303.26
1.5750	0.0064847	304.09
1.5800	0.0064270	303.75
1.5850	0.0063308	301.67
1.5900	0.0061883	297.35
1.5950	0.0059929	290.28
1.6000	0.0057395	280.08
1.6050	0.0054228	266.33
1.6100	0.0050375	248.72
1.6150	0.0045881	227.51
1.6200	0.0040758	202.79
1.6250	0.0035034	174.77
1.6300	0.0028748	143.73
1.6350	0.0021958	110.03
1.6400	0.0014732	74.164
1.6450	7.1594E-4	36.903
1.6500	1.2171E-4	9.0922
1.6550	8.8658E-4	43.798
1.6600	0.0016897	82.973
1.6650	0.0024833	121.55
1.6700	0.0032511	158.67
1.6750	0.0039804	193.74
1.6800	0.0046553	226.08
1.6850	0.0052595	255.02
1.6900	0.0057853	280.27
1.6950	0.0062195	301.27
1.7000	0.0065457	317.28
1.7050	0.0067652	328.35
1.7100	0.0068717	334.14
1.7150	0.0068511	333.87
1.7200	0.0067150	328.01
1.7250	0.0064653	316.51
1.7300	0.0060945	298.88
1.7350	0.0056193	275.92
1.7400	0.0050476	248.01
1.7450	0.0043803	215.26
1.7500	0.0036333	178.56
1.7550	0.0028187	138.60
1.7600	0.0019446	95.884
1.7650	0.0010265	51.379
1.7700	1.4274E-4	11.988
1.7750	8.9184E-4	43.877
1.7800	0.0018586	89.687
1.7850	0.0028130	135.36
1.7900	0.0037410	179.72
1.7950	0.0046295	222.15
1.8000	0.0054634	261.91
1.8050	0.0062414	298.99
1.8100	0.0069520	332.87
1.8150	0.0075899	363.29
1.8200	0.0081471	389.87
1.8250	0.0086269	412.72
1.8300	0.0090277	431.73
1.8350	0.0093556	447.10
1.8400	0.0096147	458.95
1.8450	0.0098106	467.47
1.8500	0.0099501	472.91
1.8550	0.010036	475.44
1.8600	0.010065	475.02
1.8650	0.010038	472.00
1.8700	0.0099541	466.51
1.8750	0.0098152	458.76
1.8800	0.0096240	448.97
1.8850	0.0093849	437.38
1.8900	0.0091003	424.09
1.8950	0.0087812	409.50
1.9000	0.0084366	393.90
1.9000	0.0084366	393.90
1.9250	0.0066607	310.90
1.9500	0.0055865	254.39
1.9750	0.0057259	258.87
2.0000	0.0069644	322.19
2.0250	0.0086068	404.62
2.0500	0.0097988	463.77
2.0750	0.0099123	469.17
2.1000	0.0088369	414.81
2.1250	0.0071399	329.62
2.1500	0.0057766	263.05
2.1750	0.0055325	254.12
2.2000	0.0065470	300.55