Time (s)	Displacement magnitude (m)	von Mises stress (N/m^2)
0.0000	4.0760E-16	3.2869E-11
0.025000	2.2316E-5	0.86916
0.050000	1.4708E-4	6.1312
0.075000	4.0434E-4	18.131
0.10000	7.5304E-4	35.062
0.12500	0.0011151	52.535
0.15000	0.0013995	65.959
0.17500	0.0015571	73.136
0.20000	0.0016062	74.939
0.22500	0.0016223	75.100
0.25000	0.0017053	78.802
0.27500	0.0019205	88.934
0.30000	0.0022556	104.71
0.32500	0.0026263	122.48
0.35000	0.0029373	137.67
0.37500	0.0031305	146.72
0.40000	0.0032073	149.55
0.42500	0.0032254	149.85
0.45000	0.0032795	152.25
0.47500	0.0034537	160.21
0.50000	0.0037580	174.55
0.52500	0.0041276	192.46
0.55000	0.0044684	208.78
0.57500	0.0047016	219.65
0.60000	0.0048021	224.22
0.62500	0.0048258	224.82
0.65000	0.0048660	225.97
0.67500	0.0050016	232.13
0.70000	0.0052662	244.93
0.72500	0.0056257	262.09
0.75000	0.0059881	279.32
0.77500	0.0062566	292.19
0.80000	0.0063939	298.48
0.82500	0.0064311	299.61
0.85000	0.0064539	300.15
0.87500	0.0065556	304.71
0.90000	0.0067869	315.48
0.92500	0.0071276	331.69
0.95000	0.0074946	349.59
0.97500	0.0077969	364.05
1.0000	0.0079767	372.07
1.0250	0.0080149	373.67
1.0500	0.0079043	368.82
1.0750	0.0077182	359.70
1.1000	0.0075646	351.61
1.1250	0.0075189	349.32
1.1500	0.0076022	353.60
1.1750	0.0077710	362.01
1.2000	0.0079369	370.39
1.2000	0.0079369	370.39
1.2050	0.0079609	371.62
1.2100	0.0079814	372.66
1.2150	0.0079975	373.46
1.2200	0.0080073	373.92
1.2250	0.0080142	374.22
1.2300	0.0080118	374.03
1.2350	0.0080069	373.71
1.2400	0.0079935	372.95
1.2450	0.0079763	372.00
1.2500	0.0079532	370.78
1.2550	0.0079320	369.58
1.2600	0.0079189	368.64
1.2650	0.0079265	368.44
1.2700	0.0079745	369.77
1.2750	0.0080729	373.15
1.2800	0.0082253	378.81
1.2850	0.0084371	387.08
1.2900	0.0087126	398.28
1.2950	0.0090558	412.69
1.3000	0.0094854	431.43
1.3050	0.0099826	453.70
1.3100	0.010545	479.49
1.3150	0.011167	508.62
1.3200	0.011851	541.22
1.3250	0.012587	576.79
1.3300	0.013367	614.87
1.3350	0.014181	654.96
1.3400	0.015020	696.32
1.3450	0.015868	738.18
1.3500	0.016713	779.91
1.3550	0.017545	820.89
1.3600	0.018349	860.49
1.3650	0.019113	898.11
1.3700	0.019824	933.13
1.3750	0.020472	964.95
1.3800	0.021044	993.01
1.3850	0.021530	1016.8
1.3900	0.021921	1035.9
1.3950	0.022200	1049.4
1.4000	0.022374	1057.7
1.4050	0.022434	1060.6
1.4100	0.022379	1057.8
1.4150	0.022210	1049.5
1.4200	0.021929	1035.7
1.4250	0.021539	1016.5
1.4300	0.021045	992.25
1.4350	0.020456	963.27
1.4400	0.019780	930.01
1.4450	0.019028	893.00
1.4500	0.018211	852.86
1.4550	0.017343	810.28
1.4600	0.016438	766.03
1.4650	0.015510	720.90
1.4700	0.014575	675.66
1.4750	0.013648	631.06
1.4800	0.012742	587.78
1.4850	0.011872	546.42
1.4900	0.011049	507.52
1.4950	0.010285	471.50
1.5000	0.0095861	438.71
1.5050	0.0089598	409.41
1.5100	0.0084099	383.74
1.5150	0.0079381	361.78
1.5200	0.0075442	343.48
1.5250	0.0072257	328.75
1.5300	0.0069782	317.40
1.5350	0.0067952	309.16
1.5400	0.0066680	303.65
1.5450	0.0065889	300.55
1.5500	0.0065460	299.31
1.5550	0.0065288	299.46
1.5600	0.0065261	300.55
1.5650	0.0065269	302.10
1.5700	0.0065182	303.56
1.5750	0.0064897	304.37
1.5800	0.0064314	304.00
1.5850	0.0063343	301.90
1.5900	0.0061908	297.54
1.5950	0.0059944	290.44
1.6000	0.0057399	280.19
1.6050	0.0054217	266.37
1.6100	0.0050353	248.71
1.6150	0.0045849	227.44
1.6200	0.0040717	202.67
1.6250	0.0034984	174.59
1.6300	0.0028692	143.48
1.6350	0.0021895	109.73
1.6400	0.0014662	73.798
1.6450	7.0826E-4	36.475
1.6500	1.2536E-4	9.0732
1.6550	8.9459E-4	44.220
1.6600	0.0016980	83.411
1.6650	0.0024916	122.00
1.6700	0.0032590	159.09
1.6750	0.0039875	194.12
1.6800	0.0046623	226.47
1.6850	0.0052652	255.34
1.6900	0.0057891	280.51
1.6950	0.0062233	301.53
1.7000	0.0065474	317.45
1.7050	0.0067643	328.40
1.7100	0.0068691	334.11
1.7150	0.0068483	333.84
1.7200	0.0067096	327.83
1.7250	0.0064573	316.18
1.7300	0.0060881	298.60
1.7350	0.0056106	275.49
1.7400	0.0050368	247.46
1.7450	0.0043712	214.79
1.7500	0.0036222	177.99
1.7550	0.0028062	137.96
1.7600	0.0019333	95.312
1.7650	0.0010143	50.778
1.7700	1.3850E-4	11.926
1.7750	9.0384E-4	44.460
1.7800	0.0018693	90.217
1.7850	0.0028223	135.82
1.7900	0.0037499	180.17
1.7950	0.0046364	222.48
1.8000	0.0054715	262.30
1.8050	0.0062479	299.32
1.8100	0.0069547	333.04
1.8150	0.0075860	363.18
1.8200	0.0081430	389.78
1.8250	0.0086222	412.65
1.8300	0.0090209	431.57
1.8350	0.0093478	446.91
1.8400	0.0096063	458.74
1.8450	0.0097962	466.92
1.8500	0.0099313	472.11
1.8550	0.010017	474.55
1.8600	0.010046	474.11
1.8650	0.010019	471.06
1.8700	0.0099364	465.62
1.8750	0.0097961	457.81
1.8800	0.0096027	447.95
1.8850	0.0093628	436.35
1.8900	0.0090804	423.19
1.8950	0.0087624	408.71
1.9000	0.0084194	393.22
1.9000	0.0084194	393.22
1.9250	0.0066549	310.61
1.9500	0.0055941	254.86
1.9750	0.0057468	259.99
2.0000	0.0069845	323.27
2.0250	0.0086124	404.95
2.0500	0.0097866	463.23
2.0750	0.0098852	468.01
2.1000	0.0088097	413.64
2.1250	0.0071251	328.64
2.1500	0.0057786	263.35
2.1750	0.0055472	255.12
2.2000	0.0065749	301.78